# Cu Density=8.96, Angle=90.deg
# Photon Energy (eV), Atten Length (microns)
   30.0000  1.045196E-02
   30.4173  1.043038E-02
   30.8405  1.040982E-02
   31.2695  1.040377E-02
   31.7045  1.056333E-02
   32.1456  1.072535E-02
   32.5928  1.088984E-02
   33.0462  1.105969E-02
   33.5059  1.128040E-02
   33.9720  1.157139E-02
   34.4446  1.186991E-02
   34.9238  1.217608E-02
   35.4096  1.249016E-02
   35.9022  1.281236E-02
   36.4017  1.314288E-02
   36.9081  1.342812E-02
   37.4215  1.362501E-02
   37.9421  1.375593E-02
   38.4699  1.388815E-02
   39.0051  1.402159E-02
   39.5477  1.415634E-02
   40.0979  1.429237E-02
   40.6557  1.442972E-02
   41.2213  1.453560E-02
   41.7947  1.456623E-02
   42.3761  1.456437E-02
   42.9656  1.456251E-02
   43.5633  1.456066E-02
   44.1694  1.455881E-02
   44.7838  1.455696E-02
   45.4068  1.455512E-02
   46.0385  1.455329E-02
   46.6790  1.455208E-02
   47.3283  1.457339E-02
   47.9867  1.460885E-02
   48.6543  1.464657E-02
   49.3312  1.468440E-02
   50.0174  1.472233E-02
   50.7132  1.476036E-02
   51.4187  1.479847E-02
   52.1340  1.483667E-02
   52.8593  1.487495E-02
   53.5946  1.491106E-02
   54.3402  1.494411E-02
   55.0962  1.497552E-02
   55.8626  1.500701E-02
   56.6397  1.503855E-02
   57.4277  1.507017E-02
   58.2266  1.510186E-02
   59.0366  1.513360E-02
   59.8579  1.516582E-02
   60.6906  1.520595E-02
   61.5349  1.525556E-02
   62.3909  1.530534E-02
   63.2589  1.535533E-02
   64.1389  1.540544E-02
   65.0311  1.545571E-02
   65.9358  1.550616E-02
   66.8531  1.555678E-02
   67.7831  1.560756E-02
   68.7260  1.566547E-02
   69.6821  1.576125E-02
   70.6515  1.586273E-02
   71.6343  1.596489E-02
   72.6309  1.606770E-02
   73.6413  1.617117E-02
   74.6657  1.627532E-02
   75.7044  1.638014E-02
   76.7576  1.648551E-02
   77.8254  1.658790E-02
   78.9080  1.668366E-02
   80.0058  1.677885E-02
   81.1188  1.687458E-02
   82.2472  1.697087E-02
   83.3914  1.706769E-02
   84.5515  1.716351E-02
   85.7277  1.723465E-02
   86.9203  1.729083E-02
   88.1295  1.734542E-02
   89.3555  1.740019E-02
   90.5985  1.745515E-02
   91.8589  1.751029E-02
   93.1368  1.756558E-02
   94.4325  1.762105E-02
   95.7461  1.766317E-02
   97.0781  1.770142E-02
   98.4286  1.773887E-02
   99.7979  1.777639E-02
   101.186  1.781398E-02
   102.594  1.785164E-02
   104.021  1.788947E-02
   105.468  1.792727E-02
   106.935  1.797110E-02
   108.423  1.802392E-02
   109.931  1.808111E-02
   111.461  1.813852E-02
   113.011  1.819612E-02
   114.583  1.825390E-02
   116.177  1.831180E-02
   117.793  1.836996E-02
   119.432  1.842822E-02
   121.094  1.848828E-02
   122.778  1.857331E-02
   124.486  1.870249E-02
   126.218  1.883253E-02
   127.974  1.896340E-02
   129.754  1.909528E-02
   131.559  1.922804E-02
   133.389  1.936177E-02
   135.245  1.949642E-02
   137.126  1.963190E-02
   139.034  1.976837E-02
   140.968  1.990589E-02
   142.929  2.004434E-02
   144.918  2.019137E-02
   146.934  2.041692E-02
   148.978  2.070160E-02
   151.050  2.099030E-02
   153.152  2.128290E-02
   155.282  2.157959E-02
   157.442  2.188041E-02
   159.632  2.218543E-02
   161.853  2.249479E-02
   164.105  2.280846E-02
   166.388  2.312642E-02
   168.702  2.344880E-02
   171.049  2.377568E-02
   173.429  2.423093E-02
   175.841  2.472684E-02
   178.288  2.523976E-02
   180.768  2.576333E-02
   183.283  2.629777E-02
   185.832  2.684321E-02
   188.418  2.739991E-02
   191.039  2.796846E-02
   193.696  2.854855E-02
   196.391  2.914066E-02
   199.123  2.977884E-02
   201.893  3.047494E-02
   204.702  3.120730E-02
   207.549  3.195719E-02
   210.437  3.272511E-02
   213.364  3.351142E-02
   216.332  3.429447E-02
   219.342  3.508463E-02
   222.393  3.589173E-02
   225.487  3.671740E-02
   228.624  3.756218E-02
   231.804  3.842636E-02
   235.029  3.931041E-02
   238.298  4.021471E-02
   241.614  4.113979E-02
   244.975  4.210761E-02
   248.383  4.313114E-02
   251.838  4.418309E-02
   255.341  4.526052E-02
   258.894  4.636438E-02
   262.495  4.749514E-02
   266.147  4.865347E-02
   269.849  4.983998E-02
   273.603  5.105548E-02
   277.409  5.230063E-02
   281.269  5.357608E-02
   285.181  5.488272E-02
   289.149  5.622117E-02
   293.171  5.759228E-02
   297.250  5.899681E-02
   301.385  6.044151E-02
   305.577  6.194704E-02
   309.828  6.356003E-02
   314.139  6.521524E-02
   318.509  6.691351E-02
   322.940  6.865605E-02
   327.432  7.044385E-02
   331.987  7.227820E-02
   336.606  7.416046E-02
   341.288  7.609180E-02
   346.036  7.807308E-02
   350.850  8.010621E-02
   355.731  8.219224E-02
   360.679  8.434688E-02
   365.697  8.657616E-02
   370.784  8.887374E-02
   375.942  9.123193E-02
   381.172  9.365287E-02
   386.475  9.613824E-02
   391.851  9.868927E-02
   397.303  0.101308
   402.830  0.103996
   408.433  0.106811
   414.115  0.109903
   419.876  0.113375
   425.717  0.116958
   431.640  0.120653
   437.644  0.124466
   443.733  0.128398
   449.905  0.132455
   456.164  0.136619
   462.510  0.140749
   468.944  0.144387
   475.468  0.148089
   482.082  0.151887
   488.789  0.155781
   495.589  0.159775
   502.483  0.163894
   509.473  0.168246
   516.561  0.173193
   523.747  0.178294
   531.033  0.183543
   538.420  0.188948
   545.910  0.194512
   553.505  0.200239
   561.205  0.206136
   569.012  0.212206
   576.928  0.218454
   584.953  0.225165
   593.091  0.232306
   601.342  0.239760
   609.707  0.247453
   618.189  0.255393
   626.789  0.263588
   635.508  0.272045
   644.349  0.280879
   653.313  0.290262
   662.402  0.300137
   671.616  0.310348
   680.959  0.320906
   690.433  0.331823
   700.037  0.343112
   709.776  0.353923
   719.650  0.364170
   729.661  0.374285
   739.812  0.384680
   750.104  0.395365
   760.539  0.406346
   771.119  0.417631
   781.846  0.429749
   792.723  0.443225
   803.751  0.457648
   814.932  0.472541
   826.269  0.487918
   837.763  0.503794
   849.418  0.520188
   861.234  0.541077
   873.215  0.564139
   885.363  0.587689
   897.679  0.610447
   910.167  0.636978
   922.829  0.689180
   935.667  8.586928E-02
   948.683  8.935852E-02
   961.881  9.299009E-02
   975.262  9.676797E-02
   988.829  0.100698
   1002.59  0.104788
   1016.53  0.109045
   1030.67  0.113475
   1045.01  0.117272
   1059.55  0.120342
   1074.29  0.123203
   1089.23  0.126132
   1104.39  0.129130
   1119.75  0.132200
   1135.33  0.135344
   1151.12  0.138561
   1167.14  0.141854
   1183.37  0.145227
   1199.83  0.148679
   1216.53  0.152214
   1233.45  0.155885
   1250.61  0.160074
   1268.01  0.164927
   1285.65  0.170549
   1303.53  0.176526
   1321.66  0.182711
   1340.05  0.189114
   1358.69  0.195742
   1377.59  0.202603
   1396.76  0.209701
   1416.19  0.217049
   1435.89  0.224656
   1455.87  0.232531
   1476.12  0.240686
   1496.65  0.249137
   1517.47  0.257908
   1538.58  0.266991
   1559.99  0.276391
   1581.69  0.286124
   1603.69  0.296200
   1626.00  0.306631
   1648.62  0.317431
   1671.56  0.328610
   1694.81  0.340182
   1718.39  0.352161
   1742.29  0.364698
   1766.53  0.377773
   1791.11  0.391371
   1816.02  0.405493
   1841.29  0.420122
   1866.90  0.435273
   1892.87  0.450969
   1919.20  0.467239
   1945.90  0.484097
   1972.97  0.501559
   2000.42  0.519593
   2028.25  0.538175
   2056.46  0.557781
   2085.07  0.578123
   2114.08  0.599231
   2143.49  0.621138
   2173.31  0.643889
   2203.54  0.667513
   2234.20  0.692022
   2265.28  0.717441
   2296.79  0.743839
   2328.74  0.771267
   2361.14  0.799712
   2393.98  0.829244
   2427.29  0.859912
   2461.05  0.891724
   2495.29  0.924777
   2530.00  0.959062
   2565.20  0.994629
   2600.89  1.03158
   2637.07  1.06996
   2673.75  1.10978
   2710.95  1.15109
   2748.66  1.19399
   2786.90  1.23854
   2825.67  1.28479
   2864.98  1.33280
   2904.83  1.38264
   2945.24  1.43439
   2986.22  1.48811
   3027.76  1.54388
   3069.88  1.60178
   3112.59  1.66191
   3155.89  1.72432
   3199.79  1.78914
   3244.30  1.85643
   3289.44  1.92629
   3335.20  1.99883
   3381.59  2.07413
   3428.64  2.15234
   3476.33  2.23354
   3524.69  2.31786
   3573.73  2.40542
   3623.44  2.49634
   3673.85  2.59074
   3724.96  2.68879
   3776.78  2.79056
   3829.32  2.89630
   3882.59  3.00611
   3936.60  3.12013
   3991.36  3.23850
   4046.89  3.36147
   4103.19  3.48920
   4160.27  3.62187
   4218.14  3.75968
   4276.82  3.90279
   4336.32  4.05142
   4396.64  4.20579
   4457.81  4.36611
   4519.82  4.53268
   4582.70  4.70588
   4646.45  4.88560
   4711.09  5.07233
   4776.63  5.26640
   4843.08  5.46803
   4910.45  5.67748
   4978.76  5.89510
   5048.02  6.12122
   5118.25  6.35617
   5189.45  6.60029
   5261.64  6.85413
   5334.84  7.11786
   5409.05  7.39175
   5484.30  7.67667
   5560.60  7.97292
   5637.95  8.28039
   5716.38  8.60049
   5795.91  8.93296
   5876.54  9.27871
   5958.29  9.63844
   6041.17  10.0119
   6125.21  10.4002
   6210.42  10.8046
   6296.82  11.2250
   6384.42  11.6622
   6473.23  12.1169
   6563.29  12.5899
   6654.59  13.0819
   6747.17  13.5937
   6841.03  14.1262
   6936.19  14.6804
   7032.69  15.2572
   7130.52  15.8574
   7229.72  16.4822
   7330.29  17.1325
   7432.27  17.8094
   7535.66  18.5144
   7640.49  19.2484
   7746.78  20.0128
   7854.55  20.8090
   7963.82  21.6383
   8074.61  22.5023
   8186.93  23.4025
   8300.83  24.3405
   8416.30  25.3186
   8533.39  26.3381
   8652.10  27.4008
   8772.46  28.5088
   8894.49  29.6631
   9018.23  3.96889
   9143.69  4.10603
   9270.89  4.24849
   9399.86  4.39660
   9530.62  4.55054
   9663.21  4.71055
   9797.64  4.87679
   9933.93  5.04947
   10072.1  5.22921
   10212.2  5.41613
   10354.3  5.61044
   10498.4  5.81243
   10644.4  6.02240
   10792.5  6.24071
   10942.6  6.46763
   11094.8  6.70355
   11249.2  6.94902
   11405.7  7.20423
   11564.4  7.46955
   11725.2  7.74539
   11888.3  8.03221
   12053.7  8.33046
   12221.4  8.64054
   12391.4  8.96319
   12563.8  9.29869
   12738.6  9.64756
   12915.8  10.0103
   13095.5  10.3876
   13277.7  10.7801
   13462.4  11.1882
   13649.6  11.6127
   13839.5  12.0544
   14032.1  12.5137
   14227.3  12.9915
   14425.2  13.4885
   14625.9  14.0055
   14829.3  14.5430
   15035.6  15.1025
   15244.8  15.6846
   15456.9  16.2902
   15671.9  16.9202
   15889.9  17.5756
   16111.0  18.2574
   16335.1  18.9667
   16562.3  19.7049
   16792.7  20.4730
   17026.3  21.2721
   17263.2  22.1037
   17503.4  22.9687
   17746.9  23.8689
   17993.7  24.8057
   18244.1  25.7805
   18497.9  26.7949
   18755.2  27.8505
   19016.1  28.9490
   19280.6  30.0923
   19548.9  31.2818
   19820.8  32.5194
   20096.5  33.8079
   20376.1  35.1488
   20659.6  36.5447
   20947.0  37.9972
   21238.4  39.5089
   21533.8  41.0820
   21833.4  42.7191
   22137.1  44.4232
   22445.1  46.1969
   22757.3  48.0430
   23073.9  49.9643
   23394.9  51.9638
   23720.4  54.0450
   24050.3  56.2111
   24384.9  58.4653
   24724.1  60.8116
   25068.1  63.2534
   25416.8  65.7953
   25770.4  68.4408
   26128.9  71.1940
   26492.4  74.0596
   26860.9  77.0413
   27234.6  80.1448
   27613.5  83.3750
   27997.6  86.7367
   28387.1  90.2350
   28782.0  93.8755
   29182.4  97.6641
   29588.4  101.607
   30000.0  105.709
