# C Density=2.267, Angle=90.deg
# Photon Energy (eV), Atten Length (microns)
   30.0000  1.417633E-02
   30.4173  1.462491E-02
   30.8405  1.508785E-02
   31.2695  1.556552E-02
   31.7045  1.605822E-02
   32.1456  1.656659E-02
   32.5928  1.709102E-02
   33.0462  1.763203E-02
   33.5059  1.819016E-02
   33.9720  1.876596E-02
   34.4446  1.936004E-02
   34.9238  1.997283E-02
   35.4096  2.058300E-02
   35.9022  2.120686E-02
   36.4017  2.184861E-02
   36.9081  2.250976E-02
   37.4215  2.319091E-02
   37.9421  2.389272E-02
   38.4699  2.461562E-02
   39.0051  2.536055E-02
   39.5477  2.617330E-02
   40.0979  2.705732E-02
   40.6557  2.799065E-02
   41.2213  2.895620E-02
   41.7947  2.995507E-02
   42.3761  3.098826E-02
   42.9656  3.205725E-02
   43.5633  3.316318E-02
   44.1694  3.430709E-02
   44.7838  3.548041E-02
   45.4068  3.661326E-02
   46.0385  3.764814E-02
   46.6790  3.871235E-02
   47.3283  3.980646E-02
   47.9867  4.093147E-02
   48.6543  4.208828E-02
   49.3312  4.327789E-02
   50.0174  4.450114E-02
   50.7132  4.575898E-02
   51.4187  4.705251E-02
   52.1340  4.838252E-02
   52.8593  4.974982E-02
   53.5946  5.105144E-02
   54.3402  5.228221E-02
   55.0962  5.349245E-02
   55.8626  5.473080E-02
   56.6397  5.599794E-02
   57.4277  5.729443E-02
   58.2266  5.862059E-02
   59.0366  5.997771E-02
   59.8579  6.136622E-02
   60.6906  6.283900E-02
   61.5349  6.449807E-02
   62.3909  6.641857E-02
   63.2589  6.839599E-02
   64.1389  7.043266E-02
   65.0311  7.253020E-02
   65.9358  7.468991E-02
   66.8531  7.691386E-02
   67.7831  7.920398E-02
   68.7260  8.156236E-02
   69.6821  8.399065E-02
   70.6515  8.649202E-02
   71.6343  8.906750E-02
   72.6309  9.171940E-02
   73.6413  9.445036E-02
   74.6657  9.726273E-02
   75.7044  0.100159
   76.7576  0.103141
   77.8254  0.106212
   78.9080  0.109375
   80.0058  0.112632
   81.1188  0.115985
   82.2472  0.119439
   83.3914  0.122995
   84.5515  0.126658
   85.7277  0.130429
   86.9203  0.134313
   88.1295  0.138312
   89.3555  0.142430
   90.5985  0.146672
   91.8589  0.151039
   93.1368  0.155536
   94.4325  0.160167
   95.7461  0.164937
   97.0781  0.169848
   98.4286  0.174905
   99.7979  0.180113
   101.186  0.185477
   102.594  0.190999
   104.021  0.196686
   105.468  0.202543
   106.935  0.208574
   108.423  0.214784
   109.931  0.221180
   111.461  0.227766
   113.011  0.234549
   114.583  0.241533
   116.177  0.248724
   117.793  0.256130
   119.432  0.263757
   121.094  0.271610
   122.778  0.279698
   124.486  0.288026
   126.218  0.296601
   127.974  0.305435
   129.754  0.314529
   131.559  0.323893
   133.389  0.333922
   135.245  0.344598
   137.126  0.355615
   139.034  0.366986
   140.968  0.378720
   142.929  0.390827
   144.918  0.403323
   146.934  0.416218
   148.978  0.429525
   151.050  0.443258
   153.152  0.457433
   155.282  0.472055
   157.442  0.487148
   159.632  0.502725
   161.853  0.518800
   164.105  0.535386
   166.388  0.552501
   168.702  0.570169
   171.049  0.588398
   173.429  0.607209
   175.841  0.626624
   178.288  0.646660
   180.768  0.667333
   183.283  0.688670
   185.832  0.711386
   188.418  0.738860
   191.039  0.767500
   193.696  0.797243
   196.391  0.828141
   199.123  0.860239
   201.893  0.893580
   204.702  0.928212
   207.549  0.964183
   210.437  1.00156
   213.364  1.04037
   216.332  1.08070
   219.342  1.12217
   222.393  1.16421
   225.487  1.20674
   228.624  1.25082
   231.804  1.29651
   235.029  1.34387
   238.298  1.39296
   241.614  1.44384
   244.975  1.49793
   248.383  1.55926
   251.838  1.63324
   255.341  1.71071
   258.894  1.79187
   262.495  1.87687
   266.147  1.96591
   269.849  2.05916
   273.603  2.15685
   277.409  2.25918
   281.269  2.36634
   285.181  8.604337E-02
   289.149  8.872271E-02
   293.171  9.148558E-02
   297.250  9.433444E-02
   301.385  9.727222E-02
   305.577  0.100302
   309.828  0.103424
   314.139  0.106645
   318.509  0.109966
   322.940  0.113391
   327.432  0.116922
   331.987  0.120563
   336.606  0.124317
   341.288  0.128189
   346.036  0.132181
   350.850  0.136297
   355.731  0.140541
   360.679  0.144918
   365.697  0.149431
   370.784  0.154084
   375.942  0.158901
   381.172  0.164208
   386.475  0.169901
   391.851  0.175816
   397.303  0.181938
   402.830  0.188274
   408.433  0.194830
   414.115  0.201614
   419.876  0.208634
   425.717  0.215899
   431.640  0.223417
   437.644  0.231196
   443.733  0.239247
   449.905  0.247577
   456.164  0.256198
   462.510  0.265119
   468.944  0.274351
   475.468  0.283903
   482.082  0.293795
   488.789  0.304130
   495.589  0.314939
   502.483  0.326133
   509.473  0.337725
   516.561  0.349727
   523.747  0.362158
   531.033  0.375030
   538.420  0.388360
   545.910  0.402163
   553.505  0.416457
   561.205  0.431258
   569.012  0.446588
   576.928  0.462460
   584.953  0.478895
   593.091  0.495916
   601.342  0.513543
   609.707  0.531796
   618.189  0.550696
   626.789  0.570271
   635.508  0.590539
   644.349  0.611529
   653.313  0.633263
   662.402  0.655771
   671.616  0.678941
   680.959  0.702429
   690.433  0.726165
   700.037  0.750504
   709.776  0.777288
   719.650  0.806502
   729.661  0.837461
   739.812  0.869604
   750.104  0.902982
   760.539  0.937642
   771.119  0.973641
   781.846  1.01104
   792.723  1.04988
   803.751  1.09023
   814.932  1.13214
   826.269  1.17564
   837.763  1.22081
   849.418  1.26786
   861.234  1.31686
   873.215  1.36789
   885.363  1.42094
   897.679  1.47604
   910.167  1.53328
   922.829  1.59274
   935.667  1.65481
   948.683  1.71935
   961.881  1.78645
   975.262  1.85620
   988.829  1.92869
   1002.59  2.00398
   1016.53  2.08220
   1030.67  2.16328
   1045.01  2.24829
   1059.55  2.33746
   1074.29  2.43043
   1089.23  2.52707
   1104.39  2.62762
   1119.75  2.73224
   1135.33  2.84091
   1151.12  2.95388
   1167.14  3.07138
   1183.37  3.19353
   1199.83  3.32053
   1216.53  3.45260
   1233.45  3.59005
   1250.61  3.73370
   1268.01  3.88399
   1285.65  4.04139
   1303.53  4.20542
   1321.66  4.37608
   1340.05  4.55368
   1358.69  4.73853
   1377.59  4.93085
   1396.76  5.13096
   1416.19  5.33923
   1435.89  5.55596
   1455.87  5.78156
   1476.12  6.01652
   1496.65  6.26151
   1517.47  6.51762
   1538.58  6.78441
   1559.99  7.06216
   1581.69  7.35129
   1603.69  7.65225
   1626.00  7.96554
   1648.62  8.29168
   1671.56  8.63112
   1694.81  8.98444
   1718.39  9.35211
   1742.29  9.73674
   1766.53  10.1385
   1791.11  10.5575
   1816.02  10.9942
   1841.29  11.4491
   1866.90  11.9226
   1892.87  12.4157
   1919.20  12.9293
   1945.90  13.4640
   1972.97  14.0209
   2000.42  14.5997
   2028.25  15.1999
   2056.46  15.8315
   2085.07  16.4897
   2114.08  17.1758
   2143.49  17.8910
   2173.31  18.6366
   2203.54  19.4137
   2234.20  20.2240
   2265.28  21.0684
   2296.79  21.9490
   2328.74  22.8669
   2361.14  23.8244
   2393.98  24.8227
   2427.29  25.8631
   2461.05  26.9479
   2495.29  28.0797
   2530.00  29.2593
   2565.20  30.4894
   2600.89  31.7729
   2637.07  33.1108
   2673.75  34.5059
   2710.95  35.9622
   2748.66  37.4804
   2786.90  39.0638
   2825.67  40.7139
   2864.98  42.4380
   2904.83  44.2356
   2945.24  46.1097
   2986.22  48.0657
   3027.76  50.1061
   3069.88  52.2354
   3112.59  54.4572
   3155.89  56.7753
   3199.79  59.1942
   3244.30  61.7183
   3289.44  64.3525
   3335.20  67.1015
   3381.59  69.9700
   3428.64  72.9649
   3476.33  76.0907
   3524.69  79.3535
   3573.73  82.7598
   3623.44  86.3157
   3673.85  90.0273
   3724.96  93.9023
   3776.78  97.9486
   3829.32  102.175
   3882.59  106.588
   3936.60  111.195
   3991.36  115.994
   4046.89  120.987
   4103.19  126.231
   4160.27  131.710
   4218.14  137.426
   4276.82  143.397
   4336.32  149.631
   4396.64  156.137
   4457.81  162.931
   4519.82  170.026
   4582.70  177.435
   4646.45  185.175
   4711.09  193.254
   4776.63  201.691
   4843.08  210.499
   4910.45  219.698
   4978.76  229.303
   5048.02  239.335
   5118.25  249.815
   5189.45  260.755
   5261.64  272.182
   5334.84  284.119
   5409.05  296.587
   5484.30  309.611
   5560.60  323.210
   5637.95  337.399
   5716.38  352.226
   5795.91  367.717
   5876.54  383.900
   5958.29  400.799
   6041.17  418.438
   6125.21  436.857
   6210.42  456.115
   6296.82  476.222
   6384.42  497.219
   6473.23  519.144
   6563.29  542.041
   6654.59  565.950
   6747.17  590.916
   6841.03  616.986
   6936.19  644.208
   7032.69  672.638
   7130.52  702.321
   7229.72  733.304
   7330.29  765.649
   7432.27  799.400
   7535.66  834.654
   7640.49  871.442
   7746.78  909.829
   7854.55  949.893
   7963.82  991.704
   8074.61  1035.35
   8186.93  1080.90
   8300.83  1128.41
   8416.30  1178.00
   8533.39  1229.71
   8652.10  1283.62
   8772.46  1339.85
   8894.49  1398.48
   9018.23  1459.60
   9143.69  1523.29
   9270.89  1589.68
   9399.86  1658.83
   9530.62  1730.85
   9663.21  1805.89
   9797.64  1884.04
   9933.93  1965.34
   10072.1  2050.04
   10212.2  2138.24
   10354.3  2230.01
   10498.4  2325.45
   10644.4  2424.67
   10792.5  2527.82
   10942.6  2634.99
   11094.8  2746.29
   11249.2  2861.92
   11405.7  2981.93
   11564.4  3106.44
   11725.2  3235.54
   11888.3  3369.38
   12053.7  3508.06
   12221.4  3651.64
   12391.4  3800.34
   12563.8  3954.14
   12738.6  4113.17
   12915.8  4277.47
   13095.5  4447.16
   13277.7  4622.31
   13462.4  4802.93
   13649.6  4989.12
   13839.5  5180.85
   14032.1  5378.19
   14227.3  5581.09
   14425.2  5789.59
   14625.9  6003.63
   14829.3  6223.08
   15035.6  6448.33
   15244.8  6680.39
   15456.9  6918.00
   15671.9  7161.03
   15889.9  7409.31
   16111.0  7662.72
   16335.1  7921.10
   16562.3  8184.35
   16792.7  8452.22
   17026.3  8724.42
   17263.2  9000.81
   17503.4  9281.00
   17746.9  9564.74
   17993.7  9851.85
   18244.1  10141.8
   18497.9  10434.3
   18755.2  10729.1
   19016.1  11025.7
   19280.6  11323.8
   19548.9  11622.9
   19820.8  11915.1
   20096.5  12181.4
   20376.1  12499.6
   20659.6  12818.3
   20947.0  13137.1
   21238.4  13455.5
   21533.8  13773.2
   21833.4  14089.7
   22137.1  14404.8
   22445.1  14718.0
   22757.3  15028.9
   23073.9  15337.1
   23394.9  15642.3
   23720.4  15944.3
   24050.3  16242.5
   24384.9  16536.8
   24724.1  16826.8
   25068.1  17112.2
   25416.8  17392.8
   25770.4  17668.4
   26128.9  17938.6
   26492.4  18203.5
   26860.9  18462.5
   27234.6  18715.8
   27613.5  18963.0
   27997.6  19204.1
   28387.1  19439.0
   28782.0  19667.6
   29182.4  19889.8
   29588.4  20105.6
   30000.0  20314.9
