# C10H8O4 Density=1.4, Angle=90.deg
# Photon Energy (eV), Atten Length (microns)
   30.0000  2.050808E-02
   30.4173  2.098915E-02
   30.8405  2.147815E-02
   31.2695  2.197621E-02
   31.7045  2.248332E-02
   32.1456  2.299936E-02
   32.5928  2.352432E-02
   33.0462  2.405828E-02
   33.5059  2.460131E-02
   33.9720  2.515349E-02
   34.4446  2.571491E-02
   34.9238  2.628551E-02
   35.4096  2.685109E-02
   35.9022  2.742250E-02
   36.4017  2.805746E-02
   36.9081  2.875267E-02
   37.4215  2.947817E-02
   37.9421  3.022082E-02
   38.4699  3.098084E-02
   39.0051  3.175882E-02
   39.5477  3.258213E-02
   40.0979  3.345184E-02
   40.6557  3.435405E-02
   41.2213  3.527854E-02
   41.7947  3.622604E-02
   42.3761  3.719646E-02
   42.9656  3.819054E-02
   43.5633  3.920876E-02
   44.1694  4.025148E-02
   44.7838  4.131405E-02
   45.4068  4.236044E-02
   46.0385  4.336269E-02
   46.6790  4.438733E-02
   47.3283  4.543468E-02
   47.9867  4.650528E-02
   48.6543  4.763192E-02
   49.3312  4.885605E-02
   50.0174  5.016036E-02
   50.7132  5.149920E-02
   51.4187  5.287345E-02
   52.1340  5.428382E-02
   52.8593  5.573109E-02
   53.5946  5.716607E-02
   54.3402  5.858677E-02
   55.0962  6.001795E-02
   55.8626  6.148367E-02
   56.6397  6.298479E-02
   57.4277  6.452202E-02
   58.2266  6.609606E-02
   59.0366  6.770822E-02
   59.8579  6.935913E-02
   60.6906  7.107557E-02
   61.5349  7.290884E-02
   62.3909  7.489637E-02
   63.2589  7.693721E-02
   64.1389  7.903355E-02
   65.0311  8.118626E-02
   65.9358  8.339654E-02
   66.8531  8.566605E-02
   67.7831  8.799630E-02
   68.7260  9.038903E-02
   69.6821  9.284569E-02
   70.6515  9.535577E-02
   71.6343  9.792974E-02
   72.6309  0.100571
   73.6413  0.103283
   74.6657  0.106067
   75.7044  0.108925
   76.7576  0.111858
   77.8254  0.114869
   78.9080  0.117960
   80.0058  0.121133
   81.1188  0.124390
   82.2472  0.127733
   83.3914  0.131165
   84.5515  0.134689
   85.7277  0.138305
   86.9203  0.142018
   88.1295  0.145828
   89.3555  0.149739
   90.5985  0.153753
   91.8589  0.157874
   93.1368  0.162103
   94.4325  0.166443
   95.7461  0.170898
   97.0781  0.175471
   98.4286  0.180270
   99.7979  0.185485
   101.186  0.191123
   102.594  0.196932
   104.021  0.202916
   105.468  0.209083
   106.935  0.215436
   108.423  0.221982
   109.931  0.228727
   111.461  0.235675
   113.011  0.242835
   114.583  0.250212
   116.177  0.257810
   117.793  0.265641
   119.432  0.273709
   121.094  0.282021
   122.778  0.290584
   124.486  0.299408
   126.218  0.308499
   127.974  0.317870
   129.754  0.327522
   131.559  0.337465
   133.389  0.347870
   135.245  0.358651
   137.126  0.369621
   139.034  0.380926
   140.968  0.392576
   142.929  0.404578
   144.918  0.416949
   146.934  0.429696
   148.978  0.442831
   151.050  0.456367
   153.152  0.470317
   155.282  0.484686
   157.442  0.499498
   159.632  0.514760
   161.853  0.530488
   164.105  0.546693
   166.388  0.563390
   168.702  0.580602
   171.049  0.598337
   173.429  0.616610
   175.841  0.635443
   178.288  0.654847
   180.768  0.675448
   183.283  0.698337
   185.832  0.724423
   188.418  0.753082
   191.039  0.782923
   193.696  0.813939
   196.391  0.846185
   199.123  0.879709
   201.893  0.914561
   204.702  0.950793
   207.549  0.988456
   210.437  1.02762
   213.364  1.06832
   216.332  1.11064
   219.342  1.15447
   222.393  1.19961
   225.487  1.24606
   228.624  1.29430
   231.804  1.34441
   235.029  1.39646
   238.298  1.44979
   241.614  1.50269
   244.975  1.55639
   248.383  1.61416
   251.838  1.67822
   255.341  1.74473
   258.894  1.81382
   262.495  1.88558
   266.147  1.96011
   269.849  2.03751
   273.603  2.11797
   277.409  2.20179
   281.269  2.28920
   285.181  0.210515
   289.149  0.217118
   293.171  0.223929
   297.250  0.230954
   301.385  0.238198
   305.577  0.245671
   309.828  0.253375
   314.139  0.261322
   318.509  0.269519
   322.940  0.277973
   327.432  0.286691
   331.987  0.295681
   336.606  0.304955
   341.288  0.314520
   346.036  0.324382
   350.850  0.334554
   355.731  0.345045
   360.679  0.355864
   365.697  0.367023
   370.784  0.378532
   375.942  0.390443
   381.172  0.403522
   386.475  0.417527
   391.851  0.432087
   397.303  0.447159
   402.830  0.462757
   408.433  0.478901
   414.115  0.495609
   419.876  0.512897
   425.717  0.530790
   431.640  0.549308
   437.644  0.568471
   443.733  0.588302
   449.905  0.608824
   456.164  0.630062
   462.510  0.652036
   468.944  0.674780
   475.468  0.698315
   482.082  0.722686
   488.789  0.748138
   495.589  0.774743
   502.483  0.802295
   509.473  0.830829
   516.561  0.860375
   523.747  0.890974
   531.033  0.922660
   538.420  0.955474
   545.910  0.514534
   553.505  0.532586
   561.205  0.551271
   569.012  0.570591
   576.928  0.590440
   584.953  0.610920
   593.091  0.632080
   601.342  0.653960
   609.707  0.676598
   618.189  0.700023
   626.789  0.724289
   635.508  0.749683
   644.349  0.776373
   653.313  0.804346
   662.402  0.833485
   671.616  0.863338
   680.959  0.893057
   690.433  0.922650
   700.037  0.952922
   709.776  0.985881
   719.650  1.02151
   729.661  1.05909
   739.812  1.09804
   750.104  1.13842
   760.539  1.18031
   771.119  1.22386
   781.846  1.26943
   792.723  1.31708
   803.751  1.36669
   814.932  1.41817
   826.269  1.47159
   837.763  1.52701
   849.418  1.58405
   861.234  1.64277
   873.215  1.70324
   885.363  1.76575
   897.679  1.83053
   910.167  1.89769
   922.829  1.96733
   935.667  2.04146
   948.683  2.11880
   961.881  2.19946
   975.262  2.28336
   988.829  2.37044
   1002.59  2.46078
   1016.53  2.55447
   1030.67  2.65106
   1045.01  2.75212
   1059.55  2.85793
   1074.29  2.96809
   1089.23  3.08250
   1104.39  3.20135
   1119.75  3.32483
   1135.33  3.45297
   1151.12  3.58603
   1167.14  3.72426
   1183.37  3.86781
   1199.83  4.01688
   1216.53  4.17170
   1233.45  4.33260
   1250.61  4.50044
   1268.01  4.67571
   1285.65  4.85895
   1303.53  5.04963
   1321.66  5.24777
   1340.05  5.45367
   1358.69  5.66767
   1377.59  5.89000
   1396.76  6.12104
   1416.19  6.36122
   1435.89  6.61078
   1455.87  6.87028
   1476.12  7.14039
   1496.65  7.42213
   1517.47  7.71733
   1538.58  8.02460
   1559.99  8.34399
   1581.69  8.67620
   1603.69  9.02170
   1626.00  9.38093
   1648.62  9.75443
   1671.56  10.1428
   1694.81  10.5467
   1718.39  10.9666
   1742.29  11.4056
   1766.53  11.8637
   1791.11  12.3411
   1816.02  12.8382
   1841.29  13.3555
   1866.90  13.8934
   1892.87  14.4531
   1919.20  15.0352
   1945.90  15.6408
   1972.97  16.2708
   2000.42  16.9247
   2028.25  17.6019
   2056.46  18.3143
   2085.07  19.0564
   2114.08  19.8292
   2143.49  20.6340
   2173.31  21.4720
   2203.54  22.3449
   2234.20  23.2542
   2265.28  24.2010
   2296.79  25.1876
   2328.74  26.2151
   2361.14  27.2857
   2393.98  28.4010
   2427.29  29.5627
   2461.05  30.7729
   2495.29  32.0338
   2530.00  33.3479
   2565.20  34.7170
   2600.89  36.1438
   2637.07  37.6303
   2673.75  39.1794
   2710.95  40.7944
   2748.66  42.4774
   2786.90  44.2313
   2825.67  46.0586
   2864.98  47.9651
   2904.83  49.9523
   2945.24  52.0237
   2986.22  54.1834
   3027.76  56.4343
   3069.88  58.7824
   3112.59  61.2315
   3155.89  63.7854
   3199.79  66.4491
   3244.30  69.2271
   3289.44  72.1245
   3335.20  75.1473
   3381.59  78.2994
   3428.64  81.5894
   3476.33  85.0223
   3524.69  88.6047
   3573.73  92.3437
   3623.44  96.2466
   3673.85  100.322
   3724.96  104.573
   3776.78  109.011
   3829.32  113.648
   3882.59  118.488
   3936.60  123.542
   3991.36  128.817
   4046.89  134.320
   4103.19  140.073
   4160.27  146.079
   4218.14  152.343
   4276.82  158.883
   4336.32  165.708
   4396.64  172.829
   4457.81  180.262
   4519.82  188.021
   4582.70  196.117
   4646.45  204.571
   4711.09  213.393
   4776.63  222.602
   4843.08  232.213
   4910.45  242.246
   4978.76  252.717
   5048.02  263.651
   5118.25  275.066
   5189.45  286.979
   5261.64  299.416
   5334.84  312.402
   5409.05  325.959
   5484.30  340.114
   5560.60  354.890
   5637.95  370.307
   5716.38  386.407
   5795.91  403.218
   5876.54  420.773
   5958.29  439.100
   6041.17  458.230
   6125.21  478.197
   6210.42  499.062
   6296.82  520.838
   6384.42  543.571
   6473.23  567.306
   6563.29  592.090
   6654.59  617.965
   6747.17  644.971
   6841.03  673.164
   6936.19  702.599
   7032.69  733.330
   7130.52  765.412
   7229.72  798.899
   7330.29  833.851
   7432.27  870.315
   7535.66  908.414
   7640.49  948.160
   7746.78  989.646
   7854.55  1032.94
   7963.82  1078.12
   8074.61  1125.26
   8186.93  1174.48
   8300.83  1225.85
   8416.30  1279.46
   8533.39  1335.38
   8652.10  1393.71
   8772.46  1454.56
   8894.49  1518.03
   9018.23  1584.22
   9143.69  1653.24
   9270.89  1725.22
   9399.86  1800.26
   9530.62  1878.47
   9663.21  1960.00
   9797.64  2044.97
   9933.93  2133.48
   10072.1  2225.77
   10212.2  2321.97
   10354.3  2422.18
   10498.4  2526.53
   10644.4  2635.17
   10792.5  2748.28
   10942.6  2865.97
   11094.8  2988.43
   11249.2  3115.88
   11405.7  3248.40
   11564.4  3386.18
   11725.2  3529.37
   11888.3  3678.16
   12053.7  3832.72
   12221.4  3993.18
   12391.4  4159.83
   12563.8  4332.71
   12738.6  4512.02
   12915.8  4697.91
   13095.5  4890.58
   13277.7  5090.21
   13462.4  5296.86
   13649.6  5510.78
   13839.5  5732.01
   14032.1  5960.78
   14227.3  6197.12
   14425.2  6441.20
   14625.9  6693.11
   14829.3  6952.81
   15035.6  7220.81
   15244.8  7498.03
   15456.9  7783.57
   15671.9  8077.46
   15889.9  8379.67
   16111.0  8690.22
   16335.1  9009.10
   16562.3  9336.36
   16792.7  9671.87
   17026.3  10015.5
   17263.2  10367.3
   17503.4  10726.9
   17746.9  11094.2
   17993.7  11469.2
   18244.1  11851.4
   18497.9  12240.6
   18755.2  12636.7
   19016.1  13039.3
   19280.6  13447.9
   19548.9  13862.3
   19820.8  14277.7
   20096.5  14683.2
   20376.1  15124.8
   20659.6  15571.6
   20947.0  16023.1
   21238.4  16478.8
   21533.8  16938.4
   21833.4  17401.2
   22137.1  17867.0
   22445.1  18335.1
   22757.3  18805.0
   23073.9  19276.2
   23394.9  19748.1
   23720.4  20220.4
   24050.3  20692.4
   24384.9  21163.4
   24724.1  21633.1
   25068.1  22100.9
   25416.8  22566.2
   25770.4  23028.6
   26128.9  23487.6
   26492.4  23942.6
   26860.9  24393.1
   27234.6  24838.8
   27613.5  25279.0
   27997.6  25713.5
   28387.1  26141.8
   28782.0  26563.6
   29182.4  26978.4
   29588.4  27386.0
   30000.0  27786.0
